time,airspeed,vertspd,psi,aoa,theta,diffalt,density,payload,power,airspeed_x,airspeed_y
21.1,1.100000023841858,2.8426265839846803,-4.6600291028248595,0.035417834381462024,-3.1396032583191613,7.275681972503662,1.1957552599363683,0.0,526.5724131794051,0.05538410482694432,-1.0986048668127253
21.4,1.0,2.715205133484876,-4.50294947014537,0.03277854871619876,-3.1391779880133392,7.623315334320068,1.1957552599363683,0.0,518.6371263699439,0.20554918764711377,-0.9786467858515715
21.5,0.699999988079071,2.74046660696264,-4.4156830075456535,0.03102211110907279,-3.1403991689948776,8.06231164932251,1.1957552599363683,0.0,537.5972663874636,0.20386110976831617,-0.6696570997418979
21.6,0.5,2.7000212560732857,-4.39822971502571,0.029510712326543898,3.140121477649202,8.605862140655518,1.1957552599363683,0.0,528.652031437159,0.15520791546170157,-0.475300434439138
21.8,0.30000001192092896,2.7375378698234902,-4.328416544945937,0.02917006036681485,3.13855068829462,9.363344669342041,1.1957552599363683,0.0,537.2942696339122,0.11322759958553558,-0.27781201889885027
21.9,0.30000001192092896,2.7676540596381947,-4.328416544945937,0.031527031500838604,3.1387955153090963,9.792309284210205,1.1957552599363683,0.0,524.097671942207,0.11315958030559627,-0.27783973174767285
22.0,0.30000001192092896,2.7543544354297538,-4.6600291028248595,0.03458802308642371,3.1391573228363527,10.068716526031494,1.1957552599363683,0.0,530.5985525202232,0.01643033821039146,-0.2995497473523382
22.2,0.4000000059604645,2.7841637923398355,-4.694935687864747,0.04010371453688074,3.1404050143910602,10.798099994659424,1.1957552599363683,0.0,512.879746428378,0.007455940977290757,-0.39993051110476024
22.4,0.5,2.7539850015893177,-4.6774823953448035,0.039356449280203265,3.1414179078352067,11.46052598953247,1.1957552599363683,0.0,528.1929806531554,0.0175370677364797,-0.4996923566107512
22.5,0.6000000238418579,2.7269173818987102,-4.799655442984406,0.03710014665254563,-3.1415882528607075,11.734001636505127,1.1957552599363683,0.0,520.50690016913,-0.05229607811593747,-0.5977166124710955
22.6,0.8000000119209291,2.718237044784191,-4.939281783143953,0.034638919722845975,-3.141314245913463,12.005853176116943,1.1957552599363683,0.0,572.741157188837,-0.18017785686718832,-0.7794459307535281
22.9,1.0,2.8047806628325103,-4.904375198104066,0.0345080064719159,-3.1409323479357454,12.701500415802002,1.1957552599363683,0.0,522.7107731323339,-0.19145712771214282,-0.9815009772018651
23.0,1.2000000476837158,2.9011333012777665,-4.991641660703783,0.035943299892082184,-3.1413981547195826,13.193819522857666,1.1957552599363683,0.0,558.7758531436484,-0.33098919105153174,-1.1534497257565988
23.1,1.399999976158142,2.902856500220752,-5.061454830783556,0.03255632843188981,3.140332224107733,13.773399829864502,1.1957552599363683,0.0,556.7300527187253,-0.4771696298192663,-1.316172130696036
23.3,1.7000000476837158,2.98505818192249,-5.096361415823442,0.03083762163701521,3.1395286941017626,14.219286441802979,1.1957552599363683,0.0,564.3970015700397,-0.6335766336074143,-1.5775236326189641
23.4,1.7999999523162842,3.0376711366652716,-5.1487212933832724,0.02913971456517728,3.1388362720851224,14.889997959136963,1.1957552599363683,0.0,511.140371304835,-0.7562133329462449,-1.6334445884121558
23.6,2.0999999046325684,3.0357855617038503,-5.1487212933832724,0.03020837468767486,3.1386761855866143,15.193764209747314,1.1957552599363683,0.0,518.7171758061594,-0.8819437859499069,-1.9058265288008613
23.7,2.200000047683716,3.0141187247488688,-5.183627878423159,0.03105803962634637,3.1391715757027288,15.847324848175049,1.1957552599363683,0.0,526.9787164887895,-0.9940303667545182,-1.9626267703713383
23.9,2.400000095367432,3.000939412802794,-5.235987755982989,0.02864245888339143,3.13925531644193,16.147873401641846,1.1957552599363683,0.0,551.7680657382733,-1.1951387099950332,-2.081260176343912
24.0,2.5,2.9978228052854003,-5.253441048502932,0.026229623671252218,3.138780441244564,16.788424015045166,1.1957552599363683,0.0,520.0353068562981,-1.2815637625614307,-2.146530764393883
24.2,2.700000047683716,2.97711392297324,-5.253441048502932,0.02527384823433745,3.138812468308569,17.427677631378174,1.1957552599363683,0.0,539.8929870437131,-1.384163134146115,-2.318208936994867
24.3,2.700000047683716,2.9700380515247833,-5.253441048502932,0.02548796006308918,3.1388648730806623,17.725033283233643,1.1957552599363683,0.0,533.53147779555,-1.3842846174564314,-2.318136397058113
24.5,2.700000047683716,2.9637729650942184,-5.218534463463046,0.02574461669360664,3.139167401565403,18.0625901222229,1.1957552599363683,0.0,563.6132121405245,-1.3032549859884912,-2.3646409239011756
24.6,2.700000047683716,2.9820704564875697,-5.201081170943102,0.02746621250124031,3.1385620664927147,18.656057834625244,1.1957552599363683,0.0,560.6818277180065,-1.2603426379852614,-2.3877890803771638
24.8,2.700000047683716,3.011303490763089,-5.183627878423159,0.02697432376555047,3.137578291742123,19.285831928253174,1.1957552599363683,0.0,560.366359280324,-1.216107098975716,-2.4106189622818732
24.9,2.700000047683716,3.0119115844665187,-5.183627878423159,0.026284486051944403,3.1375073356255845,19.611217975616455,1.1957552599363683,0.0,535.7264655601685,-1.2159360477544332,-2.410705246450382
25.1,2.700000047683716,3.0134178029888687,-5.235987755982989,0.024855652579160028,3.137453665037078,19.912580966949463,1.1957552599363683,0.0,555.2198534246346,-1.3403104208142789,-2.343836221528441
25.2,2.799999952316284,3.0233993628407823,-5.235987755982989,0.025291748070200522,3.137007590183919,20.53681993484497,1.1957552599363683,0.0,591.1036099912635,-1.388867111480029,-2.4312646667157227
25.3,2.799999952316284,3.0509029443508333,-5.235987755982989,0.023523614043465355,3.137114115978215,20.840609073638916,1.1957552599363683,0.0,550.5390838570601,-1.3891260959990497,-2.431116702749095
25.5,2.700000047683716,3.0774751116449277,-5.235987755982989,0.021253269247710885,3.1374564440357045,21.46038293838501,1.1957552599363683,0.0,554.8941293519966,-1.3403169343267423,-2.343832496798573
25.71,2.700000047683716,3.0853104575429637,-5.218534463463046,0.02201881436857653,3.137582646355894,21.768742084503174,1.1957552599363683,0.0,545.7208824532862,-1.2995059740053538,-2.366703293828034
25.8,2.700000047683716,3.0371136072853337,-5.218534463463046,0.024286748235887057,3.1384718257679896,22.392662525177002,1.1957552599363683,0.0,568.6216217871261,-1.3016098838507748,-2.3655468644171984
26.0,2.5999999046325684,3.0249320221460216,-5.218534463463046,0.02595211640298122,3.138572288782419,22.713697910308838,1.1957552599363683,0.0,541.781364466653,-1.2536308840445043,-2.27780796176042
26.1,2.5999999046325684,2.996519269470558,-5.218534463463046,0.02696501592073626,3.138409436294318,23.316101551055908,1.1957552599363683,0.0,535.0577184440227,-1.2532599207284247,-2.2780120884633486
26.3,2.5999999046325684,2.9872041085618477,-5.253441048502932,0.027007547148289943,3.137788724742615,23.64232110977173,1.1957552599363683,0.0,562.5424503658434,-1.3306117092216407,-2.233712600889297
26.4,2.5999999046325684,2.998544915292093,-5.253441048502932,0.025747735685627035,3.135624262845195,24.268747806549072,1.1957552599363683,0.0,538.3112997861934,-1.3257738102952468,-2.236587424632578
26.6,2.5,2.981219225644389,-5.235987755982989,0.026793350392488716,3.133600768432059,24.86723756790161,1.1957552599363683,0.0,553.5808211097393,-1.2326573265827736,-2.1749841183838123
26.7,2.5,2.986300716897316,-5.235987755982989,0.028569761619140727,3.1333250865124076,25.192661762237492,1.1957552599363683,0.0,548.1150280974107,-1.2320576759521054,-2.1753238570676086
26.8,2.400000095367432,2.996063009883476,-5.201081170943102,0.03005940787438457,3.13374165387832,25.49182367324829,1.1957552599363683,0.0,565.5857465181797,-1.110060389915944,-2.1278548795684693
27.0,2.400000095367432,3.0123032592129237,-5.201081170943102,0.028704390663466892,3.135878177635187,26.11840295791626,1.1957552599363683,0.0,554.4236059758696,-1.11460406539449,-2.1254783544345397
27.2,2.400000095367432,3.0136734953017053,-5.201081170943102,0.027589343182152212,3.1366731054805013,26.419878482818604,1.1957552599363683,0.0,564.6954026077912,-1.116293314980232,-2.1245916531639972
27.3,2.400000095367432,3.0024798059184006,-5.201081170943102,0.025377352488591836,3.138627734805738,27.03729486465454,1.1957552599363683,0.0,563.7613668937084,-1.1204439690443864,-2.1224056563239144
27.5,2.400000095367432,3.0279232485021463,-5.183627878423159,0.027907867210296238,3.138368195646834,27.657543659210205,1.1957552599363683,0.0,555.032960540484,-1.082676358758624,-2.1419179162490916
27.6,2.400000095367432,3.0319590879178797,-5.1661745859032155,0.02858766754125363,3.1381670429605233,27.9605450630188,1.1957552599363683,0.0,564.888432760239,-1.0446952309704287,-2.1606971865930973
27.71,2.400000095367432,3.039091448948564,-5.1487212933832724,0.02774189211836745,3.1377124190369328,28.277698993682804,1.1957552599363683,0.0,578.5708268844684,-1.0058362053965757,-2.1790580500934573
27.9,2.400000095367432,3.0412638118727715,-5.1487212933832724,0.02590268391139449,3.136843300786568,28.89561700820923,1.1957552599363683,0.0,548.4035933529849,-1.0039419666275835,-2.179931417592678
28.1,2.400000095367432,3.036699047891478,-5.1661745859032155,0.026428941712444587,3.135748872816781,29.50356149673462,1.1957552599363683,0.0,547.4067785958177,-1.0394672481856535,-2.1632171175619495
28.2,2.400000095367432,3.0342168020239253,-5.1661745859032155,0.02750685182567262,3.135695718931155,29.82055902481079,1.1957552599363683,0.0,545.3682567033939,-1.039352263322032,-2.1632723662292395
28.3,2.5,3.0357858414045245,-5.183627878423159,0.028949421069158328,3.135383573345443,30.124212741851807,1.1957552599363683,0.0,544.1115143084426,-1.121123632584267,-2.234520485576504
28.5,2.5,3.036393799452371,-5.183627878423159,0.028773624048703986,3.133984612419237,30.74624490737915,1.1957552599363683,0.0,560.7762331247578,-1.1179965296851013,-2.2360867066399885
28.61,2.5,3.03831898355388,-5.1487212933832724,0.028992091692059085,3.133616237893157,31.05021905899048,1.1957552599363683,0.0,533.8353227252372,-1.038439516612179,-2.2741247481917664
28.8,2.5,3.0173584038973056,-5.1661745859032155,0.03119676523365953,3.1327622828645367,31.672808170318604,1.1957552599363683,0.0,564.7227117353468,-1.0760436857914653,-2.256574835069362
29.0,2.5,3.0268818080290782,-5.1312680008633285,0.032099186124001096,3.1329292334808163,31.99280023574829,1.1957552599363683,0.0,565.423170858412,-0.9970176257673323,-2.2925871529582627
29.1,2.5,3.0360593367927,-5.1312680008633285,0.029775286616039696,3.1330396780831427,32.59895181655884,1.1957552599363683,0.0,591.477426553938,-0.9972708235624079,-2.292477023760796
29.31,2.5999999046325684,3.050706670360517,-5.096361415823442,0.027426306710241512,3.133126314081326,32.91557550430298,1.1957552599363683,0.0,558.0580237581016,-0.9535328265506396,-2.4188374589417356
29.4,2.5999999046325684,3.0582006595441182,-5.078908123303499,0.025855591753013687,3.132312432256285,33.521742343902645,1.1957552599363683,0.0,553.7938894803518,-0.9091908707015831,-2.435851281322869
29.5,2.5999999046325684,3.0671049277723235,-5.078908123303499,0.02671680527821948,3.1311938456878154,33.82804346084595,1.1957552599363683,0.0,557.462256677565,-0.9064655919376392,-2.436866765894785
29.7,2.700000047683716,3.0629379793358664,-5.061454830783556,0.03486598211095536,3.1293864889911065,34.449942111968994,1.1957552599363683,0.0,576.84613883985,-0.8924172640971662,-2.548252672760964
29.9,2.700000047683716,3.05793340498754,-5.096361415823442,0.03607389982458644,3.1308875816793598,35.07477807998663,1.1957552599363683,0.0,572.5830048717435,-0.9845813387960892,-2.514080317886954
30.1,2.799999952316284,3.0555540715342744,-5.061454830783556,0.03461038852642768,3.132016114046889,35.380606174468994,1.1957552599363683,0.0,520.9640493818733,-0.9324156476046449,-2.6401895373387885
30.21,2.799999952316284,3.0435541748452124,-5.061454830783556,0.030059049866750887,3.1328558382600833,35.68582010269165,1.1957552599363683,0.0,542.3166168733806,-0.934632349685769,-2.639405634587464
30.3,2.799999952316284,3.026941833844804,-5.078908123303499,0.02441579157194819,3.1329266466397203,36.303064823150635,1.1957552599363683,0.0,562.6190641003341,-0.9807396866560965,-2.6226226186756065
30.51,2.799999952316284,3.036882898625465,-5.096361415823442,0.02790228490375981,3.1327179892167702,36.61910104751587,1.1957552599363683,0.0,589.4213588205458,-1.0258177938904032,-2.605321014137993
30.6,2.799999952316284,3.0751594651952328,-5.1312680008633285,0.03546254232926779,3.132635156562357,37.23059320449829,1.1957552599363683,0.0,533.9597892948769,-1.1159045729804276,-2.5680258404020324
30.8,2.900000095367432,3.0695466405791545,-5.1487212933832724,0.03770579369393844,3.1331087193128986,37.85553979873663,1.1957552599363683,0.0,561.6535495834614,-1.2032508975070186,-2.6385958066327
30.9,2.900000095367432,3.065523259931279,-5.1487212933832724,0.03793663046521801,3.1331094348013444,38.17457818984985,1.1957552599363683,0.0,545.0773712633527,-1.2032527853915223,-2.6385949457199107
31.0,2.900000095367432,3.0650826314185107,-5.1661745859032155,0.0367230393981198,3.133114614297492,38.48127603530884,1.1957552599363683,0.0,584.121416040489,-1.249132911306761,-2.617186948427913
31.2,2.900000095367432,3.071752802382721,-5.183627878423159,0.039410538948273455,3.1322645620478773,39.11551904678345,1.1957552599363683,0.0,514.9595714175593,-1.2924125298318925,-2.5960875189146924
31.4,2.900000095367432,3.0367901988043324,-5.183627878423159,0.04139550856350313,3.1317768459543247,39.42121362686157,1.1957552599363683,0.0,549.6272598603427,-1.291146222507709,-2.5967175405182576
31.5,2.900000095367432,3.0297741055009766,-5.183627878423159,0.03603787603988293,3.131621842992188,40.054625034332275,1.1957552599363683,0.0,550.1061095395853,-1.2907437080882214,-2.5969176408122348
31.7,2.799999952316284,3.0470696571488114,-5.201081170943102,0.03304740365152384,3.1323271024151786,40.69148874282837,1.1957552599363683,0.0,536.4354281590785,-1.2915574667947547,-2.484326677982972
31.8,2.799999952316284,3.0503796061984456,-5.218534463463046,0.033571250035969426,3.1324864170555133,40.9965500831604,1.1957552599363683,0.0,544.8757802479668,-1.3351103565572187,-2.4611948457578183
32.0,2.900000095367432,3.070848569920997,-5.218534463463046,0.03451700185434789,3.132150625938261,41.32128381729126,1.1957552599363683,0.0,564.881387463065,-1.3819368969838732,-2.5495589747808736
32.1,2.900000095367432,3.0846689552487483,-5.235987755982989,0.03902624463689913,3.1305741679650705,41.93721628189081,1.1957552599363683,0.0,524.5738745496055,-1.4222399509660484,-2.5272977812294317
32.3,2.900000095367432,3.0835321500411497,-5.235987755982989,0.038761924326190605,3.1284140850373396,42.56199884414673,1.1957552599363683,0.0,530.9891112281475,-1.4167774643660718,-2.5303640389468782
32.4,2.900000095367432,3.071765490087316,-5.253441048502932,0.03792904872007489,3.1272331196687597,42.87883234024048,1.1957552599363683,0.0,542.5332094476435,-1.4577629895921926,-2.5069757915277817
32.6,2.900000095367432,3.0643980094449628,-5.270894341022875,0.037159213801728624,3.1263670371252994,43.18586206436157,1.1957552599363683,0.0,554.9306507498585,-1.4991442800160608,-2.4824518083592766
32.7,2.900000095367432,3.0740671537040662,-5.270894341022875,0.03853065106762765,3.126314211416709,43.81140375137329,1.1957552599363683,0.0,554.5195534075756,-1.4990131406485787,-2.482530998254403
32.81,2.900000095367432,3.0806925069183735,-5.270894341022875,0.04074758228602787,3.1268252704815156,44.1193528175354,1.1957552599363683,0.0,552.3394785504788,-1.5002816648065278,-2.4817645898385425
33.01,2.900000095367432,3.0791460384215337,-5.288347633542818,0.03912123170465572,3.1283627995976055,44.74355173110962,1.1957552599363683,0.0,560.2644492728868,-1.54713904942441,-2.452827208524328
33.2,3.0,3.0868479302971696,-5.305800926062762,0.03685671018968645,3.12898832715941,45.36571741104126,1.1957552599363683,0.0,533.3358071731346,-1.6460979039914998,-2.508059347478602
33.3,3.0,3.083439170214848,-5.305800926062762,0.035915131823961055,3.129637246597764,45.674463748931885,1.1957552599363683,0.0,541.7981566111304,-1.6477250857574277,-2.5069906345588286
33.51,3.0999999046325684,3.0713171825626207,-5.375614096142535,0.03485960520326316,3.129907110972659,45.988863468170166,1.1957552599363683,0.0,550.463690702516,-1.8798750256546828,-2.4649684169663795
33.6,3.0999999046325684,3.069885832839673,-5.340707511102648,0.031079995518375106,3.1297493199773836,46.60307550430298,1.1957552599363683,0.0,546.6854639483246,-1.7923046120987958,-2.529356358082292
33.8,3.0999999046325684,3.0527867946988203,-5.358160803622591,0.027339723653072787,3.1302732080860136,47.21901178359985,1.1957552599363683,0.0,514.5033819281269,-1.8374832492385214,-2.4967288033524544
33.9,3.0,3.054200108074945,-5.358160803622591,0.02799423578147308,3.1300325337430417,47.53729486465454,1.1957552599363683,0.0,543.844424875657,-1.7776280844889865,-2.416617138322911
34.12,3.0,3.0595788856428485,-5.340707511102648,0.032119677822785624,3.1294378726162786,47.8428521156311,1.1957552599363683,0.0,557.2793111699648,-1.7337259538089254,-2.44830437590781
34.2,3.0,3.084828178079821,-5.340707511102648,0.03836795484358267,3.1289878373515334,48.46317529678345,1.1957552599363683,0.0,556.2782742673372,-1.7326239549708622,-2.4490843657704255
34.3,3.0,3.088631654813313,-5.358160803622591,0.03650484148893504,3.129755796773911,48.772127628326416,1.1957552599363683,0.0,538.6765858925392,-1.7769592491267576,-2.4171089811886572
34.5,3.0,3.0688614577637234,-5.375614096142535,0.032031817610433215,3.131033556407331,49.39160776138306,1.1957552599363683,0.0,542.3070499941242,-1.8219198800685559,-2.38340259935475
34.71,2.900000095367432,3.0627333328138366,-5.3930673886624785,0.02950443164890357,3.131398136869772,49.698355197906494,1.1957552599363683,0.0,554.5374164270471,-1.8019591363766116,-2.2722112190463215
34.8,2.900000095367432,3.0969961879665338,-5.410520681182422,0.031858235681696316,3.1307389264040744,50.33269739151001,1.1957552599363683,0.0,561.0466659080848,-1.8398629369122546,-2.241629970915746
35.0,2.900000095367432,3.0893713839073484,-5.410520681182422,0.03677474121552194,3.1298839210411553,50.65266275405884,1.1957552599363683,0.0,498.24185316954384,-1.8379456589976588,-2.243202244048177
35.1,2.900000095367432,3.0340331718308664,-5.427973973702365,0.04218811594961752,3.127559375434991,51.26590585708618,1.1957552599363683,0.0,538.8649802137223,-1.8716708739124932,-2.2151407839861466
35.3,2.799999952316284,3.0213607503039683,-5.410520681182422,0.040836576263789115,3.12735219775482,51.58195352554321,1.1957552599363683,0.0,531.0405939350313,-1.7690791188807045,-2.1703361039505986
35.4,2.799999952316284,3.038289089981871,-5.410520681182422,0.03667464368038418,3.1275405363194624,52.21194314956665,1.1957552599363683,0.0,547.7128318809044,-1.7694878454890282,-2.170002879638133
35.61,2.799999952316284,3.0430113430621657,-5.427973973702365,0.03212109322801485,3.127455837852154,52.820791721343994,1.1957552599363683,0.0,529.8517292428915,-1.8069089573812698,-2.138943606714896
35.71,2.799999952316284,3.0543581186574005,-5.445427266222308,0.030233161323983362,3.1267309967840125,53.134619235992375,1.1957552599363683,0.0,546.0552635108469,-1.8424356850569348,-2.1084189525329107
35.9,2.799999952316284,3.0542442144406814,-5.480333851262195,0.030269123955759633,3.1261458583909723,53.44035196304321,1.1957552599363683,0.0,537.6405628755493,-1.9137004146641012,-2.0439546119925565
36.1,2.799999952316284,3.0579201681265338,-5.462880558742252,0.036128237311178514,3.1237185706452473,54.058443546295166,1.1957552599363683,0.0,530.4008621341492,-1.872689917033232,-2.081593670151132
36.2,2.799999952316284,3.06456753954782,-5.480333851262195,0.04003185219976141,3.1231124619321404,54.3648247718811,1.1957552599363683,0.0,565.0360254318986,-1.9074914950457065,-2.049750211440284
