time,airspeed,vertspd,psi,aoa,theta,diffalt,density,payload,power,airspeed_x,airspeed_y
28.4,2.700000047683716,3.123771531433228,-1.0995574287564276,0.05272115817948867,2.856707542006086,7.000897586345673,1.1731365661482205,0.25,532.4881979620841,-1.852488446206332,1.9642522277355619
28.6,2.700000047683716,3.0765298122717084,-0.9424777960769379,0.04206067016004813,2.8539022743479343,7.584161460399628,1.1731365661482205,0.25,574.7090144602337,-2.1415790372103967,1.6442747595438716
28.7,2.799999952316284,3.057278157820538,-0.9075712110370514,0.041113252977342786,2.854234239859163,7.891034781932831,1.1731365661482205,0.25,594.2623409256776,-2.278513388650528,1.627383320152779
28.9,2.900000095367432,2.956659360229475,-0.8377580409572782,0.044460103984061895,2.8559984068153272,8.0935999751091,1.1731365661482205,0.25,611.9050434479723,-2.46903554602137,1.5211390553181088
29.1,3.0,2.947109638415881,-0.7853981633974483,0.05763272754107598,2.8671459648424413,8.770486533641815,1.1731365661482205,0.25,620.9887690710275,-2.616838873173452,1.4670222601747716
29.2,3.0999999046325684,2.9369781553770555,-0.7155849933176751,0.0595137303221385,2.8741070180422965,9.360240638256073,1.1731365661482205,0.25,620.7204509592555,-2.7939437009155235,1.3430852559820616
29.31,3.2000000476837163,2.9714054647468617,-0.6981317007977318,0.05134402855176671,2.8734847681157154,9.755238234996796,1.1731365661482205,0.25,599.2105788287811,-2.9086586721553047,1.3340558586774114
29.51,3.2999999523162837,3.0203091838515506,-0.6108652381980153,0.04391402181389698,2.8704614985578596,10.454451262950897,1.1731365661482205,0.25,659.4099641368448,-3.111382884731071,1.099680057966877
29.7,3.400000095367432,3.0215176326286484,-0.5934119456780721,0.05137401929586005,2.8696946449625904,10.757116973400116,1.1731365661482205,0.25,540.3459950830983,-3.2257776184688995,1.0744111897610074
29.82,3.5,2.959332561081793,-0.5061454830783556,0.06497374385838876,2.869115219085896,11.056746184825897,1.1731365661482205,0.25,610.2938813594882,-3.404882649424651,0.8104160312129621
30.0,3.5,2.856020897821316,-0.5061454830783556,0.07757987218852794,2.867943415367071,11.713260352611542,1.1731365661482205,0.25,621.3063865631995,-3.4058299600637927,0.8064256215745278
30.1,3.7000000476837163,2.8463608262113063,-0.4188790204786391,0.07160492519221426,2.867468194800074,12.09270828962326,1.1731365661482205,0.25,601.6281090904887,-3.6613030053553954,0.5337233888776582
30.21,3.7999999523162837,2.815136734881596,-0.47123889803846897,0.053916319261090716,2.867182378855601,12.659454047679901,1.1731365661482205,0.25,586.3773079657332,-3.7266284265426304,0.7431286618669449
30.4,3.900000095367432,2.827973993402165,-0.4537856055185257,0.049979859445142716,2.867960233183619,13.364101111888885,1.1731365661482205,0.25,573.6570846120667,-3.836883494484584,0.6988031150601343
30.5,3.7999999523162837,2.9012712425991154,-0.4886921905584123,0.05192156400753405,2.869033408925059,13.811703383922634,1.1731365661482205,0.25,594.3125544472424,-3.7115893668290636,0.8149257694079809
30.71,3.7999999523162837,2.8429654689225154,-0.5061454830783556,0.06299064384761151,2.870395912211017,14.388067901134491,1.1731365661482205,0.25,579.4004402131978,-3.6955997993511502,0.8846139048418222
30.9,3.7999999523162837,2.9026953046147512,-0.4363323129985824,0.0664170399315725,2.8712835283438194,14.856911361217499,1.1731365661482205,0.25,635.0039334665781,-3.7477491095814126,0.6279938289788267
31.0,3.7000000476837163,2.8877393827740536,-0.47123889803846897,0.06224981135248586,2.874371595829356,15.147062003612518,1.1731365661482205,0.25,623.0177500034262,-3.6232637033068595,0.749640239820787
31.1,3.7000000476837163,3.006298024550618,-0.5061454830783556,0.05046292081778539,2.880789197939063,15.852553069591522,1.1731365661482205,0.25,593.9034123902674,-3.589200983316707,0.8986860710047114
31.31,3.7000000476837163,3.0178924616664853,-0.5585053606381855,0.0443420315835884,2.8779961282183804,16.489338576793614,1.1731365661482205,0.25,589.2080501218445,-3.5402660268188164,1.0754147163824828
31.5,3.7000000476837163,3.009910918630367,-0.5585053606381855,0.03633693482455924,2.8750907273780997,16.79107922315592,1.1731365661482205,0.25,695.3533585974764,-3.543375590934638,1.0651242999894937
31.6,3.5999999046325684,3.0400405778720265,-0.5410520681182421,0.035830234122912544,2.8736668908763687,17.10520428419113,1.1731365661482205,0.25,655.1363652620494,-3.4665562023910015,0.9710753879174264
31.7,3.5999999046325684,3.089970103325823,-0.5235987755982988,0.0424398813580961,2.8679156846349985,17.721789062023106,1.1731365661482205,0.25,620.8230617330081,-3.488154258335835,0.8903814819548307
31.9,3.5999999046325684,3.0930225850799724,-0.5235987755982988,0.026015426401620214,2.87028212700521,18.318096816539764,1.1731365661482205,0.25,641.1689918639385,-3.4860374569241874,0.8986334971922899
32.0,3.7000000476837163,3.0861574690648816,-0.5585053606381855,0.03225679816203078,2.8706726667332263,18.620152175426483,1.1731365661482205,0.25,651.5458813198858,-3.5480467773992093,1.04945910746755
32.2,3.7000000476837163,3.1077306937958897,-0.5759586531581288,0.040573757149128364,2.8706211717194674,18.930725753307343,1.1731365661482205,0.25,654.6107723720488,-3.5292480234797896,1.1110394869776237
32.4,3.7000000476837163,3.0779116634078862,-0.5934119456780721,0.04876001824489968,2.8722070772948296,19.541273772716522,1.1731365661482205,0.25,598.1684865739225,-3.50745635943937,1.1780281148970178
32.5,3.7999999523162837,3.0866405047249015,-0.5759586531581288,0.046907021676183866,2.873348798411759,19.8510519862175,1.1731365661482205,0.25,588.6841052312594,-3.621507127015089,1.1509499409542867
32.6,3.7999999523162837,3.053000934323181,-0.5585053606381855,0.04530367511432973,2.874371039219447,20.44603604078293,1.1731365661482205,0.25,642.2195630471433,-3.6399287388086567,1.0912920846403038
32.81,3.7000000476837163,3.0724327143995853,-0.5585053606381855,0.04685235780585187,2.8744489406045597,21.053789794445038,1.1731365661482205,0.25,585.2674655138,-3.5440584438346936,1.0628499892005039
33.01,3.7000000476837163,3.0621221016002593,-0.5759586531581288,0.04922585274577931,2.876010276594012,21.36208027601242,1.1731365661482205,0.25,650.0330798003307,-3.523209295263674,1.1300427490264016
33.1,3.5999999046325684,3.0368451733653083,-0.5759586531581288,0.05098265870151025,2.8778069430303597,21.664997756481114,1.1731365661482205,0.25,653.4346490190073,-3.426006319144013,1.1056581816003495
33.2,3.5999999046325684,3.0577916468671984,-0.5585053606381855,0.04973146962804286,2.8758907797843998,22.279162108898106,1.1731365661482205,0.25,588.9072820239744,-3.446778320015961,1.0390950514858834
33.5,3.5999999046325684,3.0044544189367786,-0.6283185307179586,0.04153645651500944,2.8713004598471765,22.884979903697968,1.1731365661482205,0.25,639.2614724699343,-3.371724886405952,1.2615350188343049
33.61,3.400000095367432,3.0006386855740623,-0.7155849933176751,0.0397736119599138,2.8703026486327587,23.195110976696014,1.1731365661482205,0.25,609.8452841473772,-3.069907410264636,1.4613928769844273
33.71,3.400000095367432,2.9688084361293883,-0.7330382858376184,0.05062390446225081,2.8728411249212646,23.793972671031952,1.1731365661482205,0.25,650.2843052842218,-3.040080072035759,1.5224696397989692
33.9,3.2999999523162837,2.9623077821786072,-0.767944870877505,0.0570899426201483,2.8748753727501635,24.105360686779022,1.1731365661482205,0.25,661.128468370007,-2.8940780553381438,1.5856581898056286
34.0,3.400000095367432,2.9936234776218447,-0.767944870877505,0.047476069808101706,2.8782937894642857,24.71641606092453,1.1731365661482205,0.25,708.4343502398915,-2.9761754096072957,1.6438919002621166
34.2,3.2999999523162837,3.016684344922849,-0.767944870877505,0.03636437425115427,2.8793071439302516,25.01752918958664,1.1731365661482205,0.25,677.9349635352701,-2.887022383412257,1.5984684679292507
34.4,3.2999999523162837,3.049813931394441,-0.767944870877505,0.025199003230403208,2.8801748939860876,25.629654586315155,1.1731365661482205,0.25,700.373041817431,-2.885634225534381,1.6009730796337798
34.5,3.400000095367432,3.0507894034757688,-0.8203047484373349,0.027569209817700516,2.8806245474403016,25.934946715831757,1.1731365661482205,0.25,683.0584772701333,-2.8818648703498306,1.8041218133879158
34.7,3.5,3.0507370205763613,-0.7853981633974483,0.04210570005020063,2.881040024017565,26.547655761241913,1.1731365661482205,0.25,672.1582467528498,-3.0289047311424566,1.7537776739549518
34.8,3.5999999046325684,3.0519349429476805,-0.7853981633974483,0.04775345400605613,2.880376896427457,27.175232589244843,1.1731365661482205,0.25,717.1176699484568,-3.116640304993205,1.8018192258510177
35.0,3.5999999046325684,3.0673184221393464,-0.7853981633974483,0.04392739106296332,2.8805672837166063,27.48185032606125,1.1731365661482205,0.25,633.6137199382794,-3.1162972050324025,1.8024125618907947
35.1,3.7000000476837163,3.0544899891936907,-0.8377580409572782,0.041124919546693756,2.8812286485084617,27.785811126232147,1.1731365661482205,0.25,685.2910439359403,-3.100185413474212,2.0196164870938325
35.3,3.7000000476837163,3.0300091513077794,-0.8726646259971648,0.03840291891693656,2.8842817928605613,28.39539211988449,1.1731365661482205,0.25,764.0582558552849,-3.0213064042015243,2.1358155268633006
35.4,3.7000000476837163,3.0323091084255713,-0.9075712110370514,0.03699572870167996,2.8856033194877675,28.697022140026093,1.1731365661482205,0.25,630.3154799040533,-2.9419642861566455,2.2438463610145685
35.5,3.7000000476837163,3.0344924248082794,-0.9250245035569946,0.030672051326080797,2.8854974988056745,29.312555968761444,1.1731365661482205,0.25,618.2144007088209,-2.9025985183033054,2.2945418266841338
35.7,3.7000000476837163,2.9552851698985454,-0.9773843811168246,0.02606442211387838,2.8849717956404994,29.910519301891384,1.1731365661482205,0.25,718.4633914730657,-2.7798176377607215,2.441846484456774
35.9,3.7000000476837163,2.9597665071698653,-0.9773843811168246,0.02679621510954782,2.884502217834646,30.220333755016384,1.1731365661482205,0.25,691.3356962118995,-2.7809639681534857,2.440540874620116
36.0,3.7000000476837163,2.9502542703108547,-0.9948376736367679,0.029989095093387066,2.8834446729232126,30.51590794324875,1.1731365661482205,0.25,677.1375857295498,-2.7405774869632396,2.4858067887126216
36.21,3.7000000476837163,2.9727582828525265,-1.0122909661567112,0.031026087704924436,2.881290979318993,31.12572544813156,1.1731365661482205,0.25,730.1223382088574,-2.7022263760136482,2.5274439589505535
36.31,3.7000000476837163,3.0313238780744203,-1.0122909661567112,0.03812656789556166,2.8790105710442027,31.73364895582199,1.1731365661482205,0.25,672.1618685626307,-2.707982948996945,2.5212752132207448
36.51,3.7000000476837163,3.018191503835024,-1.064650843716541,0.036223480287218536,2.8783076906416496,32.03700894117355,1.1731365661482205,0.25,640.0229107210179,-2.5741871095742552,2.6577360812844537
36.61,3.7000000476837163,2.9836964422330117,-1.0995574287564276,0.0324661035072891,2.8786454633721164,32.3387286067009,1.1731365661482205,0.25,681.3457264253957,-2.478937682605048,2.746792369040699
36.8,3.7000000476837163,2.9824884446627093,-1.0995574287564276,0.02714166860068527,2.8805720436503974,32.93410366773605,1.1731365661482205,0.25,666.9333506982657,-2.4736411693225837,2.7515631408877215
36.9,3.7000000476837163,3.01791851555582,-1.0995574287564276,0.02393814170209405,2.882487231785667,33.249792754650116,1.1731365661482205,0.25,670.7384088153341,-2.4683668748740164,2.7562955799195743
37.0,3.7000000476837163,3.0361765125676734,-1.0821041362364843,0.02949200105417243,2.884304071250318,33.859003722667694,1.1731365661482205,0.25,651.3330361753361,-2.5111620550219604,2.7173637015087597
37.2,3.7999999523162837,3.0528457221481577,-1.064650843716541,0.03237977025636798,2.8845827828607478,34.163683593273106,1.1731365661482205,0.25,634.9882571895432,-2.6265794452508002,2.7461027029937823
37.3,3.7999999523162837,3.02702978319199,-1.0471975511965976,0.041496815222990896,2.8840666738473613,34.77047985792154,1.1731365661482205,0.25,663.3235425963902,-2.6754985627512378,2.6984638367633944
37.5,3.7999999523162837,3.0142388736622916,-1.0297442586766545,0.0435691413091208,2.884244404754161,35.073000609874725,1.1731365661482205,0.25,659.7049987368882,-2.721714487572382,2.651842733976199
37.7,3.7999999523162837,3.033196455736848,-1.064650843716541,0.045070913652832424,2.886656384266931,35.682184875011444,1.1731365661482205,0.25,704.9753466832917,-2.6208794799940525,2.751543274046378
37.81,3.7999999523162837,3.073598014396961,-1.064650843716541,0.044450874596204976,2.888227600455401,35.98832958936691,1.1731365661482205,0.25,628.252063259788,-2.6165529773288823,2.755657844224337
37.9,3.7000000476837163,3.1003876888964523,-1.0471975511965976,0.03732132486130686,2.890220358065518,36.602419555187225,1.1731365661482205,0.25,665.2835394541326,-2.588873041688661,2.6434327543701963
38.11,3.7999999523162837,3.0678527702946536,-0.9948376736367679,0.03926114121464983,2.8902641008397727,37.21249645948404,1.1731365661482205,0.25,637.4668083325741,-2.7971718293704675,2.5721254624493013
38.3,3.7999999523162837,3.049548480891773,-0.9599310885968813,0.04361547916482096,2.8896270744745696,37.519377410411835,1.1731365661482205,0.25,666.0191593786293,-2.886808493594076,2.4711002324707225
38.41,3.7999999523162837,3.018269663400525,-0.9773843811168246,0.04827893244150548,2.888718453331546,37.82546490430832,1.1731365661482205,0.25,673.2795598247176,-2.8455317289554802,2.518521156772639
38.6,3.7999999523162837,3.0340123959534253,-0.9773843811168246,0.040878695134946776,2.887097343064495,38.443102538585606,1.1731365661482205,0.25,676.5337337374295,-2.8496107886465087,2.5139049287578836
38.7,3.7999999523162837,3.0511183424541146,-1.0297442586766545,0.042817889738433014,2.8852474740190557,39.0548922419548,1.1731365661482205,0.25,584.5935271665657,-2.7190531368530424,2.654571467595738
38.82,3.7999999523162837,3.0326205655490472,-1.0471975511965976,0.04241291350821144,2.8855533179463775,39.37149304151535,1.1731365661482205,0.25,662.534865626938,-2.6714839523161804,2.70243836749719
39.0,3.7999999523162837,3.0413999332825923,-1.0471975511965976,0.042353787170234566,2.8842890571860162,39.99365872144699,1.1731365661482205,0.25,621.8186898828137,-2.6748984032014045,2.6990587563360555
39.2,3.7999999523162837,3.0300654007609915,-1.0471975511965976,0.0402854313154181,2.8825770389054286,40.29786938428873,1.1731365661482205,0.25,665.8850754275663,-2.679515318803879,2.694475328129598
39.31,3.900000095367432,3.021066151270272,-0.9948376736367679,0.03690544850809573,2.881512946648946,40.60127133131027,1.1731365661482205,0.25,730.6514580174844,-2.8937729115419417,2.61458965810929
39.5,3.900000095367432,3.0731237517852006,-1.0122909661567112,0.03575627405579547,2.8834952156789737,41.22555035352707,1.1731365661482205,0.25,679.4641768679502,-2.8424135612606882,2.670334415504416
39.6,3.7999999523162837,3.090440408346628,-0.9948376736367679,0.03771194741514476,2.8854900398574106,41.54026287794113,1.1731365661482205,0.25,705.489137525321,-2.8094193905058957,2.558742332837217
39.71,3.7999999523162837,3.123902702421973,-0.9948376736367679,0.040136910164529575,2.8876041253847324,42.16312664747238,1.1731365661482205,0.25,601.8942471609624,-2.804003716253684,2.5646759633215437
39.9,3.900000095367432,3.0518767543161425,-1.0122909661567112,0.0444877184462141,2.887811514399925,42.77763241529465,1.1731365661482205,0.25,652.5118761343036,-2.8308611583685037,2.682578208721325
40.1,3.7999999523162837,3.0461509934249347,-0.9948376736367679,0.046277470453821176,2.888188143308641,43.093126952648106,1.1731365661482205,0.25,689.114894554732,-2.802505421416748,2.566313114281555
40.2,3.7999999523162837,3.030012820044108,-0.9948376736367679,0.04646977434286982,2.889265127332268,43.397455871105194,1.1731365661482205,0.25,619.0621836691861,-2.799739918422068,2.5693298789368697
40.4,3.7999999523162837,3.0538420374142863,-0.9948376736367679,0.04147131549070511,2.8918160898358303,44.02088040113449,1.1731365661482205,0.25,732.8398893592383,-2.793176551827758,2.576463542905925
40.5,3.7999999523162837,3.0918212001340675,-0.9948376736367679,0.03721642948227679,2.892889417442958,44.64655941724777,1.1731365661482205,0.25,649.4274257473444,-2.7904095539949254,2.5794600517506763
40.7,3.7999999523162837,3.094712477862887,-0.9599310885968813,0.03349899740424796,2.893073014739642,44.9562708735466,1.1731365661482205,0.25,677.7740415756563,-2.8782761069633964,2.4810333108782303
40.8,3.7000000476837163,3.0920523139163043,-0.9948376736367679,0.03175584647698172,2.8925074247165377,45.266028106212616,1.1731365661482205,0.25,653.5472359542035,-2.717936999617752,2.5105415389848367
41.0,3.7000000476837163,3.0839028527924066,-0.9948376736367679,0.032445954808852116,2.8915573224567703,45.88849514722824,1.1731365661482205,0.25,688.4294457195282,-2.7203210437152876,2.5079580881624137
41.1,3.7000000476837163,3.0868378095666307,-1.0471975511965976,0.03039510188724826,2.8909452369011577,46.1996905207634,1.1731365661482205,0.25,651.4479411771135,-2.586956193238621,2.6453086789869804
41.2,3.7000000476837163,3.0784983949026423,-1.0821041362364843,0.03297539213399593,2.8902244251588733,46.818110167980194,1.1731365661482205,0.25,621.6016647370344,-2.4950303854637172,2.732182960285104
41.41,3.5999999046325684,3.0598999122034107,-1.0995574287564276,0.03646222426756495,2.8880414796771476,47.44153469800949,1.1731365661482205,0.25,673.5399705318268,-2.3867218060783673,2.6950989469302455
41.5,3.5999999046325684,3.0847182564291256,-1.117010721276371,0.036349706382356746,2.8872728621092474,47.76373165845871,1.1731365661482205,0.25,661.2399981236449,-2.341424844289641,2.734543656974182
41.7,3.5999999046325684,3.081931892280806,-1.117010721276371,0.03705062566426423,2.886362433692288,48.07235974073404,1.1731365661482205,0.25,591.6073287179244,-2.343913479818503,2.7324108242501928
41.9,3.5999999046325684,3.0340641561067034,-1.1344640137963142,0.030643840401607697,2.8865725236321444,48.695959746837616,1.1731365661482205,0.25,682.7329749618076,-2.2952867367916374,2.773383873404996
42.01,3.5,3.019788052379995,-1.1519173063162575,0.02680310248010817,2.888335899249362,48.99866360425949,1.1731365661482205,0.25,656.0796030227721,-2.1793052260582364,2.7387275752939098
42.1,3.5,3.0693318945829247,-1.1519173063162575,0.027589476171100212,2.891953955175975,49.621515929698944,1.1731365661482205,0.25,674.6612738482762,-2.1693821142461442,2.7465944808778975
42.31,3.5,3.118902242606828,-1.1344640137963142,0.03108786654704011,2.894389309498971,50.24770230054855,1.1731365661482205,0.25,618.9719750742297,-2.2103841149597425,2.7137063334733984
42.4,3.5,3.1111765060658727,-1.1519173063162575,0.03140104784318855,2.894745675144467,50.55933254957199,1.1731365661482205,0.25,665.8893514042938,-2.161705947796896,2.7526400773184143
42.6,3.5,3.1030726607973445,-1.1344640137963142,0.030772319211203714,2.895666587683541,50.867914855480194,1.1731365661482205,0.25,590.9991500460202,-2.20691615494934,2.716527394491655
42.8,3.5,3.08480233868759,-1.1344640137963142,0.02937094877999176,2.8967488576312834,51.48736447095871,1.1731365661482205,0.25,589.9162712027282,-2.2039748470725944,2.718914282111765
42.9,3.5,3.0796428640085365,-1.117010721276371,0.03156642163649812,2.8962467020443214,51.79680126905441,1.1731365661482205,0.25,671.6180160523508,-2.252436279079757,2.6789047778309216
43.0,3.5,3.081014392320022,-1.117010721276371,0.03298106143745592,2.8954471739402408,52.41914242506027,1.1731365661482205,0.25,671.8709056733132,-2.2545774185801046,2.6771030356765637
43.21,3.5,3.0857301579715504,-1.117010721276371,0.03325589386088658,2.894451478418027,52.72795742750168,1.1731365661482205,0.25,686.0131906788666,-2.2572418800400604,2.6748568363546514
43.4,3.400000095367432,3.083072243322324,-1.117010721276371,0.03475663850392006,2.8930414968605938,53.35032147169113,1.1731365661482205,0.25,578.5305016118509,-2.1964108773439914,2.595338110224474
